Motion Through Fluids Experiment Thu, Feb 15, 2024 10:49 AM
Time(sec)	Position(mm)
0.015	28.062
0.065	28.692
0.115	29.531
0.165	30.162
0.215	30.789
0.265	31.418
0.315	32.046
0.365	32.673
0.415	33.300
0.465	33.927
0.515	34.554
0.565	35.180
0.615	35.805
0.665	36.431
0.715	37.056
0.765	37.680
0.815	38.305
0.865	38.928
0.915	39.552
0.965	40.177
1.015	40.798
1.065	41.422
1.115	41.835
1.165	42.457
1.215	43.079
1.265	43.700
1.315	44.323
1.365	44.942
1.415	45.562
1.465	45.975
1.515	46.595
1.565	47.214
1.615	47.833
1.665	48.452
1.715	49.072
1.765	49.277
1.815	49.895
1.865	50.514
1.915	51.131
1.965	51.748
2.015	52.158
2.065	52.776
2.115	53.391
2.165	54.008
2.215	54.624
2.265	55.032
2.315	55.649
2.365	56.264
2.415	56.879
2.465	57.493
2.515	57.902
2.565	58.516
2.615	59.130
2.665	59.743
2.715	60.151
2.765	60.764
2.815	61.377
2.865	61.989
2.915	62.601
2.965	63.009
3.015	63.620
3.065	64.231
3.115	64.842
3.165	65.249
3.215	65.860
3.265	66.470
3.315	67.080
3.365	67.487
3.415	68.096
3.465	68.706
3.515	69.315
3.565	69.720
3.615	70.329
3.665	70.938
3.715	71.546
3.765	71.951
3.815	72.559
3.865	73.166
3.915	73.774
3.965	74.178
4.015	74.785
4.065	75.392
4.115	75.998
4.165	76.402
4.215	77.008
4.265	77.614
4.315	78.220
4.365	78.623
4.415	79.229
4.465	79.834
4.515	80.438
4.565	80.841
4.615	81.446
4.665	82.050
4.715	82.654
4.765	83.057
4.815	83.660
4.865	84.264
4.915	84.867
4.965	85.269
5.015	85.671
5.065	86.274
5.115	86.876
5.165	87.478
5.215	87.880
5.265	88.482
5.315	89.084
5.365	89.685
5.415	90.086
5.465	90.688
5.515	91.289
5.565	91.690
5.615	92.290
5.665	92.891
5.715	93.492
5.765	93.892
5.815	94.492
5.865	95.092
5.915	95.692
5.965	96.092
6.015	96.691
6.065	97.290
6.115	97.891
6.165	98.289
6.215	98.888
6.265	99.487
6.315	100.087
6.365	100.484
6.415	101.083
6.465	101.681
6.515	102.280
6.565	102.677
6.615	103.275
6.665	103.874
6.715	104.472
6.765	104.868
6.815	105.466
6.865	106.064
6.915	106.661
6.965	107.057
7.015	107.655
7.065	108.252
7.115	108.848
7.165	109.244
7.215	109.842
7.265	110.438
7.315	111.034
7.365	111.430
7.415	112.027
7.465	112.622
7.515	113.019
7.565	113.613
7.615	114.210
7.665	114.805
7.715	115.201
7.765	115.795
7.815	116.391
7.865	116.986
7.915	117.382
7.965	117.975
8.015	118.571
8.065	119.165
8.115	119.561
8.165	119.956
8.215	120.749
8.265	121.145
8.315	121.541
8.365	122.133
8.415	122.728
8.465	123.321
8.515	123.717
8.565	124.310
8.615	124.903
8.665	125.496
8.715	125.892
8.765	126.483
8.815	127.077
8.865	127.670
8.915	128.065
8.965	128.658
9.015	129.250
9.065	129.843
9.115	130.237
9.165	130.830
9.215	131.422
9.265	132.014
9.315	132.409
9.365	133.001
9.415	133.592
9.465	133.987
9.515	134.579
9.565	135.170
9.615	135.762
9.665	136.156
9.715	136.748
9.765	137.339
9.815	137.931
9.865	138.325
9.915	138.916
9.965	139.507
10.015	140.098
10.065	140.492
10.115	141.083
10.165	141.674
10.215	142.265
10.265	142.659
10.315	143.250
10.365	143.841
10.415	144.234
10.465	144.825
10.515	145.416
10.565	146.006
10.615	146.400
10.665	146.990
10.715	147.581
10.765	148.171
10.815	148.565
10.865	149.155
10.915	149.745
10.965	150.336
11.015	150.729
11.065	151.319
11.115	151.909
11.165	152.303
11.215	152.893
11.265	153.483
11.315	154.073
11.365	154.466
11.415	155.056
11.465	155.646
11.515	156.236
11.565	156.433
11.615	157.023
11.665	157.613
11.715	158.202
11.765	158.596
11.815	159.185
11.865	159.775
11.915	160.365
11.965	160.758
12.015	161.348
12.065	161.938
12.115	162.528
12.165	162.921
12.215	163.510
12.265	164.100
12.315	164.690
12.365	165.083
12.415	165.673
12.465	166.262
12.515	166.656
12.565	167.245
12.615	167.835
12.665	168.425
12.715	168.818
12.765	169.408
12.815	169.997
12.865	170.587
12.915	170.980
12.965	171.570
13.015	172.160
13.065	172.553
13.115	173.143
13.165	173.732
13.215	174.322
13.265	174.715
13.315	175.305
13.365	175.895
13.415	176.485
13.465	176.878
13.515	177.468
13.565	178.058
13.615	178.452
13.665	179.042
13.715	179.632
13.765	180.222
13.815	180.615
13.865	181.205
13.915	181.796
13.965	182.386
14.015	182.779
14.065	183.369
14.116	183.961
14.165	184.353
14.215	184.943
14.265	185.535
14.315	186.124
14.365	186.518
14.415	187.108
14.465	187.700
14.515	188.093
14.565	188.683
14.615	189.275
14.665	189.865
14.715	190.259
14.765	190.850
14.815	191.244
14.865	191.637
14.915	192.228
14.965	192.820
15.015	193.412
15.065	193.805
15.115	194.396
15.165	194.988
15.215	195.381
15.265	195.973
15.315	196.565
15.365	197.157
15.415	197.550
15.465	198.143
15.515	198.734
15.565	199.128
15.615	199.720
15.665	200.313
15.715	200.707
15.765	201.298
15.815	201.891
15.865	202.484
15.915	202.877
15.965	203.471
16.015	204.063
16.065	204.457
16.115	205.050
16.165	205.643
16.215	206.039
16.265	206.630
16.315	207.224
16.365	207.817
16.415	208.212
16.465	208.806
16.515	209.399
16.565	209.794
16.615	210.388
16.665	210.982
16.715	211.378
16.765	211.971
16.815	212.565
16.865	212.961
16.915	213.555
16.965	214.149
17.015	214.545
17.065	215.139
17.115	215.734
17.165	216.130
17.215	216.724
17.265	217.320
17.315	217.914
17.365	218.310
17.415	218.906
17.465	219.501
17.515	219.898
17.565	220.494
17.615	221.089
17.665	221.486
17.715	222.082
17.765	222.678
17.815	223.075
17.865	223.671
17.915	224.267
17.965	224.665
18.015	225.062
18.065	225.858
18.115	226.256
18.165	226.653
18.215	227.250
18.265	227.648
18.315	228.245
18.365	228.843
18.415	229.241
18.465	229.838
18.515	230.436
18.565	230.835
18.615	231.432
18.665	232.031
18.715	232.430
18.765	233.028
18.815	233.627
18.865	234.026
18.915	234.624
18.965	235.224
19.015	235.623
19.065	236.222
19.115	236.822
19.165	237.221
19.215	237.821
19.265	238.421
19.315	238.821
19.365	239.421
19.415	240.022
19.465	240.422
19.515	241.022
19.565	241.623
19.615	242.024
19.665	242.625
19.715	243.226
19.765	243.626
19.815	244.229
19.865	244.831
19.915	245.232
19.965	245.834
20.015	246.236
20.065	246.838
20.115	247.441
20.165	247.843
20.215	248.445
20.265	249.049
20.315	249.451
20.365	250.054
20.415	250.658
20.465	251.061
20.515	251.665
20.565	252.068
20.615	252.672
20.665	253.277
20.715	253.680
20.765	254.285
20.815	254.890
20.865	255.293
20.915	255.899
20.965	256.303
21.015	256.909
21.065	257.515
21.115	257.919
21.165	258.526
21.215	259.132
21.265	259.537
21.315	259.942
21.365	260.347
21.415	260.954
21.465	261.562
21.515	261.967
21.565	262.575
21.615	263.183
21.665	263.589
21.715	264.198
21.765	264.604
21.815	265.213
21.865	265.822
21.915	266.229
21.965	266.838
22.015	267.245
22.065	267.855
22.115	268.466
22.165	268.873
22.215	269.484
22.265	269.891
22.315	270.503
22.365	270.910
22.415	271.522
22.465	271.930
22.515	272.542
22.565	273.155
22.615	273.563
22.665	274.176
22.715	274.790
22.765	275.199
22.815	275.608
22.865	276.222
22.915	276.631
22.965	277.245
23.015	277.860
23.065	278.270
23.115	278.885
23.165	279.295
23.215	279.706
23.265	280.321
23.315	280.732
23.365	281.348
23.415	281.965
23.465	282.376
23.515	282.788
23.565	283.199
23.615	283.816
23.665	284.434
23.715	284.847
23.765	285.258
23.815	285.877
23.865	286.496
23.915	286.909
23.965	287.528
24.015	287.941